# sod		dsTEC/dt [TECU/s]		lat		lon		h_ipp		ele		azi
16890.0 0.01967532548512 11.52773182858287 -161.65196171126715 350032.10737089905888 11.45307667443410 216.84321841640016
17100.0 0.01974072879694 12.09389735558867 -161.38270875919801 350016.42070151399821 12.76075661058907 217.49985178170954
17160.0 0.01936843309019 12.24694833419486 -161.31032055010357 350032.60936782229692 13.13428509182346 217.69493424732360
17190.0 0.01856548177800 12.32312055673905 -161.27408338189372 349981.41479358449578 13.32100665231152 217.79373175636874
17220.0 0.01741136507230 12.39667572269427 -161.23959313880158 350034.23467999882996 13.50764361276647 217.89336775855026
17250.0 0.01607210662541 12.47118545591662 -161.20418870972534 349975.57560991868377 13.69420014239272 217.99384450339738
17280.0 0.01424584526809 12.54310898517935 -161.17052599449852 350025.12007247749716 13.88082199551523 218.09517040288580
17310.0 0.01246687546747 12.61480065222072 -161.13684083593134 350035.08748042583466 14.06728296329894 218.19733835943970
17340.0 0.01106322004255 12.68628477624347 -161.10311491396632 350010.36182287707925 14.25388866745678 218.30036451309562
17370.0 0.00884152010847 12.75635963456637 -161.07025938982184 350018.86972003523260 14.44027398474813 218.40423457921040
17400.0 0.00687439008239 12.82622907239045 -161.03736360728431 349992.99301163759083 14.62677844483710 218.50896743043080
17430.0 0.00543954229910 12.89470086075073 -161.00533943530198 350001.67938085552305 14.81306081268237 218.61454846316283
17460.0 0.00376320532188 12.96296709883867 -160.97327714480679 349975.87741472106427 14.99940721342988 218.72099509057287
17490.0 0.00277813101131 13.02986193761890 -160.94207854440305 349988.59914923831820 15.18570567326894 218.82830423518800
17520.0 0.00174475884717 13.09654566068269 -160.91084764445654 349965.73447970580310 15.37194498480274 218.93647794360467
17550.0 0.00020929053871 13.16186477210897 -160.88048526223355 349981.78959073405713 15.55807173382289 219.04551559760040
17580.0 -0.00220358814204 13.22697365191361 -160.85009240046128 349962.35396852344275 15.74409076604975 219.15541990143373
17610.0 -0.00345027573680 13.29074249561037 -160.82056176557691 349985.39883539825678 15.93014893962676 219.26620306480680
17640.0 -0.00566996307718 13.35430747346177 -160.79099918883361 349973.99826794583350 16.11611767761929 219.37785975694487
17670.0 -0.00635216988474 13.41652881349607 -160.76231071676358 350003.59745215438306 16.30192593626063 219.49038764023737
17700.0 -0.00726177887531 13.47856608743713 -160.73358050656694 350002.14781465474516 16.48782902462295 219.60380759407684
17730.0 -0.00808384805477 13.54039066284166 -160.70482464444675 349964.95659496821463 16.67348348619602 219.71809781719512
17760.0 -0.01012443110264 13.60090272400975 -160.67693444395192 349973.32637219224125 16.85917630675681 219.83328228221578
17790.0 -0.01182491691430 13.66010359012896 -160.64991757136423 350026.67778075952083 17.04479466791345 219.94935574391616
17820.0 -0.01302431284155 13.72023014875837 -160.62195838500477 349970.26915385946631 17.23032774979328 220.06632034829821
17850.0 -0.01325070887545 13.77904574398530 -160.59487551849247 349958.78069901093841 17.41572106454493 220.18417451888132
17880.0 -0.01468656291865 13.83656134134624 -160.56867070369742 349993.30530699715018 17.60098014344605 220.30292141995605
17910.0 -0.01465436422650 13.89390098499884 -160.54242651991910 349998.11509776394814 17.78625277212879 220.42257693785876
17940.0 -0.01653596707211 13.95105327519727 -160.51614830841689 349971.57545701600611 17.97140747200318 220.54313294475574
17970.0 -0.01761461838393 14.00691767992879 -160.49075268040369 349992.19734162930399 18.15637451674500 220.66458591623694
18000.0 -0.01950125212284 14.06261478015762 -160.46531400972688 349984.71161593683064 18.34141024851679 220.78696293806368
22800.0 -0.01966727581209 18.97895693172196 -158.47768491801227 350035.32171691395342 44.09192048059897 254.49542651582988
22830.0 -0.01888042377211 18.99794973542151 -158.47024724508725 349967.47901382111013 44.20933905323297 254.80812386296651
22860.0 -0.01831292464837 19.01661447330857 -158.46375244760821 350013.85175605583936 44.32580632628606 255.12202644655753
22890.0 -0.01849605338960 19.03537507784239 -158.45672082628158 349993.39669346529990 44.44164345360866 255.43742627510213
22920.0 -0.01688914513318 19.05407442597838 -158.44965775163070 349965.37011025194079 44.55648960587987 255.75399527574251
22950.0 -0.01748079301750 19.07260928618635 -158.44303362752675 349992.48348689638078 44.67066762329167 256.07203233665086
22980.0 -0.01641220386161 19.09108869847939 -158.43637676408440 350012.31172586511821 44.78385776856119 256.39123980408834
23010.0 -0.01659734563974 19.10952818069519 -158.42967445273899 350026.04690755903721 44.89631057855119 256.71185392615592
23040.0 -0.01659432682307 19.12792105514102 -158.42293172519689 350033.25724232848734 45.00791950785575 257.03377500941764
23070.0 -0.01619788206027 19.14626715814258 -158.41614841189389 350033.98756496515125 45.11868283188029 257.35700166377291
23100.0 -0.01682977901152 19.16456257334691 -158.40932739472072 350028.01468850579113 45.22853876736813 257.68147281368101
23130.0 -0.01645345811738 19.18280826752121 -158.40246761762137 350015.46725896466523 45.33750387471900 258.00720322931238
23160.0 -0.01670500928256 19.20101262802076 -158.39556194010314 349996.99587213993073 45.44571314481562 258.33432848559983
23190.0 -0.01672110870251 19.21916024406368 -158.38862267121860 349971.56672043073922 45.55292135073538 258.66260022478446
23220.0 -0.01660841394478 19.23717342724153 -158.38211644139574 350002.46451205480844 45.65944304805836 258.99233946983901
23250.0 -0.01720207442279 19.25513316897430 -158.37557723296271 350026.49062710441649 45.76492690976920 259.32318338581558
23280.0 -0.01639610458940 19.27315074836293 -158.36850632344922 349983.08357565291226 45.86968734638404 259.65545869111213
23310.0 -0.01630453992332 19.29102053130572 -158.36188440807612 349994.84408306237310 45.97341419145005 259.98883720824563
23340.0 -0.01647458835675 19.30885220523876 -158.35521593421691 350000.95951382536441 46.07635024797730 260.32357542581275
23370.0 -0.01527418650199 19.32663921140457 -158.34850605154745 350001.02951444964856 46.17839241150423 260.65956226574980
23400.0 -0.01518765280307 19.34438143723834 -158.34175455861723 349995.09911846835166 46.27954000373871 260.99679515523542
23430.0 -0.01526009952801 19.36199778060923 -158.33544425358011 350045.28372582513839 46.37973292092687 261.33520485228104
23460.0 -0.01458091142632 19.37972091232653 -158.32813458361088 349964.73324849829078 46.47898843682949 261.67480672468452
23490.0 -0.01424986997534 19.39725595495592 -158.32173649669429 350003.48002735618502 46.57743775927655 262.01574740155689
23520.0 -0.01400334992505 19.41474209039227 -158.31530303075530 350035.90674839820713 46.67484212363614 262.35775162487266
23550.0 -0.01370651975991 19.43226450124627 -158.30833949409393 350000.77330617140979 46.77150816931663 262.70117052039711
23580.0 -0.01336642230211 19.44972994089472 -158.30134305574887 349959.14598345384002 46.86709576887240 263.04560523418638
23610.0 -0.01317222481263 19.46709780004204 -158.29477348492185 349975.05560271441936 46.96190966785561 263.39141107501308
23640.0 -0.01325775243631 19.48441458216430 -158.28816929233528 349984.71297778282315 47.05565075118960 263.73822844460847
23670.0 -0.01311185291119 19.50169520215598 -158.28151727396886 349989.13953056745231 47.14855322419501 264.08633438819140
23700.0 -0.01297299606052 19.51893321914303 -158.27482270374247 349987.96459403168410 47.24051801609118 264.43560607690506
23730.0 -0.01301123223828 19.53612856741273 -158.26808534340904 349981.23301923088729 47.33154560658318 264.78603977895818
23760.0 -0.01324366546232 19.55327739968141 -158.26130828702233 349968.74913260713220 47.42157802080645 265.13755775130562
23790.0 -0.01263994245904 19.57038076081862 -158.25449035213421 349950.63108351919800 47.51063326853453 265.49017608104805
23820.0 -0.01303236262539 19.58740684591434 -158.24809671436162 349990.55389702320099 47.59883832333507 265.84405262823896
23850.0 -0.01296796538882 19.60438621061814 -158.24166658715538 350024.61330566089600 47.68596222229827 266.19888440779488
23880.0 -0.01290054948331 19.62137229491276 -158.23471111918792 349990.83433783147484 47.77230232826183 266.55505345149714
23910.0 -0.01246385713094 19.63830373518406 -158.22772181843490 349951.04347155895084 47.85753144686270 266.91212418691117
23940.0 -0.01261579355073 19.65514260325289 -158.22162160348441 350033.13408166542649 47.94194340345393 267.27048096819124
23970.0 -0.01202817041060 19.67198972431647 -158.21454531062724 349982.76861426420510 48.02525163022357 267.62973241312415
24000.0 -0.01217406978798 19.68877420692141 -158.20788988220423 349990.88528810720891 48.10768087230758 267.99017621587336
24030.0 -0.01270132132214 19.70551822509939 -158.20119058012688 349993.80972074344754 48.18913668965558 268.35167769197062
24060.0 -0.01214589598775 19.72222175550295 -158.19444712458352 349991.58624940365553 48.26962082149718 268.71423210143354
24090.0 -0.01207948674843 19.73888098424204 -158.18766272229740 349984.03213908616453 48.34907787744286 269.07775307714479
24120.0 -0.01173737728787 19.75548559283746 -158.18130220852078 350034.89658946450800 48.42752661052649 269.44225765573265
24150.0 -0.01202816996740 19.77207775114444 -158.17395962821109 349953.78955040778965 48.50508930553653 269.80791503058504
24180.0 -0.01222840509022 19.78860263836244 -158.16751146253281 349994.51345059182495 48.58154415468204 270.17439416378119
24210.0 -0.01173536469418 19.80510202765213 -158.16100753738414 350030.95723129156977 48.65717786142843 270.54210844846392
24240.0 -0.01166794908414 19.82155486365995 -158.15400400447015 349998.10144641716033 48.73167788735834 270.91058557712250
24270.0 -0.01147676982040 19.83797417392032 -158.14694768543407 349960.81637816503644 48.80532588432814 271.28023904698057
24300.0 -0.01156531626075 19.85434708114938 -158.14031741912177 349981.98773228004575 48.87784929764810 271.65064596715422
24330.0 -0.01098272349684 19.87068789149226 -158.13363621613482 349998.65826896764338 48.94946256649650 272.02212452304690
24360.0 -0.01133489533493 19.88699039918309 -158.12690961644935 350010.51224419847131 49.02007645912518 272.39452838271154
24390.0 -0.01181887972416 19.90325461852657 -158.12013729411933 350017.59319331403822 49.08969405319512 272.76785209731543
24420.0 -0.01141639777122 19.91947676886750 -158.11332257310659 350019.73090621735901 49.15826298534176 273.14200080682303
24450.0 -0.01208250526963 19.93565795131160 -158.10646411841898 350017.03247031569481 49.22580273315125 273.51699284988058
24480.0 -0.01185510316049 19.95180600295576 -158.09955403888378 350009.97747528646141 49.29243043758281 273.89300877339906
24510.0 -0.01159952695565 19.96790617058245 -158.09260632840721 349997.78692650236189 49.35793477135078 274.26968974736468
24540.0 -0.01166090552328 19.98397718707906 -158.08560244964625 349981.53977632708848 49.42259039812163 274.64748057539447
24570.0 -0.01135803816800 19.99999833624357 -158.07856232400152 349960.13616661727428 49.48610109313564 275.02587297603020
24600.0 -0.01117188987142 20.01602183438834 -158.07192123711030 349998.94821158796549 49.54873510676740 275.40530928139020
24630.0 -0.01193761181976 20.03200130969462 -158.06524142250913 350032.78033707384020 49.61023528389694 275.78533607987492
24660.0 -0.01152506808023 20.04791126936574 -158.05805690781250 349998.03246647212654 49.67080494331098 276.16629161429023
24690.0 -0.01011135035163 20.06377946289867 -158.05082700866851 349958.73974108323455 49.73036059407555 276.54801845775074
24720.0 -0.01045849107483 20.07969600040687 -158.04445158403308 350043.88008074462414 49.78890669552010 276.93051090637368
24750.0 -0.01039107531705 20.09548262242787 -158.03713190047802 349995.49891456961632 49.84639431904776 277.31366601455005
24780.0 -0.00922589008471 20.11127552676575 -158.03021683697244 350007.09813903551549 49.90284361108373 277.69750389466839
24810.0 -0.00952070824709 20.12703736332763 -158.02324818379154 350014.65209311433136 49.95836611704388 278.08221637201802
24840.0 -0.00949857208021 20.14269740114057 -158.01579397052851 349952.84082835726440 50.01276224092729 278.46741771967010
24870.0 -0.00916048677290 20.15844259700414 -158.00917436847135 350016.45935725606978 50.06629325705733 278.85358374416847
24900.0 -0.00869461439731 20.17408410565438 -158.00207055348142 350010.69795434176922 50.11868078782700 279.24017177337839
24930.0 -0.00901861199196 20.18969611345352 -157.99491012065593 350001.12032994534820 50.17017850712733 279.62765222317239
24960.0 -0.00822169816539 20.20526085127822 -157.98771110186672 349986.85890907142311 50.22054591318739 280.01554288476473
24990.0 -0.00846922473413 20.22079191920520 -157.98045909327104 349968.64388923533261 50.26997443837078 280.40420132709443
25020.0 -0.00825087789313 20.23635613744035 -157.97360059719844 350010.99014734104276 50.31838679382355 280.79345992577100
25050.0 -0.00810799688922 20.25188632375740 -157.96669256270425 350049.21759046521038 50.36578881562112 281.18331331366448
25080.0 -0.00852054077649 20.26722220426643 -157.95886130252239 349953.51387842930853 50.41213536167627 281.57365113787114
25110.0 -0.00785543964879 20.28267254547311 -157.95186187154920 349983.25447037070990 50.45744714543459 281.96449585220734
25140.0 -0.00806674263345 20.29809378655320 -157.94480664278709 350009.23140172753483 50.50182967292738 282.35605036812490
25170.0 -0.00743786449888 20.31347157081304 -157.93771058027750 350030.78103457298130 50.54509621004459 282.74790359171419
25200.0 -0.00766929209088 20.32882404051350 -157.93055389979176 350048.82039457373321 50.58749335357646 283.14056142881617
25230.0 -0.00736642414466 20.34403928306158 -157.92292426564180 349997.46559395082295 50.62876190764440 283.53344922686358
25260.0 -0.00761898138509 20.35931613903537 -157.91567021723387 350007.49146209377795 50.66913992908626 283.92706425929566
25290.0 -0.00736642414466 20.37454799145528 -157.90837577599464 350013.17237956635654 50.70840460580321 284.32089792890929
25320.0 -0.00712091031735 20.38964794179174 -157.90059600188204 349950.14847879949957 50.74673478431081 284.71532608653672
25350.0 -0.00724970419955 20.40491056046687 -157.89362748100598 350013.25376615300775 50.78405974407438 285.11017211639751
25380.0 -0.00743887086960 20.42003555408994 -157.88617917583036 350007.45580225717276 50.82038663624525 285.50543167934262
25410.0 -0.00747308200771 20.43511939562771 -157.87868501022371 349997.64700077660382 50.85567438257532 285.90098792765957
25440.0 -0.00718832577965 20.45027418922582 -157.87156913167550 350049.02466856129467 50.88994411011414 286.29686627603724
25470.0 -0.00790675613435 20.46528805841379 -157.86397039945405 350031.76674566417933 50.92329485686417 286.69328038593983
25500.0 -0.00746503222387 20.48025513405457 -157.85633117799813 350010.35339030530304 50.95555371953890 287.08979590566963
25530.0 -0.00773167658602 20.49519323527426 -157.84863104980860 349985.62596151698381 50.98695142350431 287.48694742109109
25560.0 -0.00799027101660 20.51008285008045 -157.84089174741004 349956.74272768292576 51.01724911240031 287.88413136428244
25590.0 -0.00746905667258 20.52506557067818 -157.83351329411929 349989.70104442350566 51.04666813678003 288.28187018553433
25620.0 -0.00785141505234 20.54000541307926 -157.82609240502074 350018.62347183749080 51.07500429378245 288.67963195624128
25650.0 -0.00798423367872 20.55478553612387 -157.81819644713681 349978.88919116929173 51.10242322944372 289.07780944418909
25680.0 -0.00826395893961 20.56965696846316 -157.81066786299124 350000.71221943944693 51.12886104605217 289.47621848873052
25710.0 -0.00753043524021 20.58449280514358 -157.80308739472949 350018.92466897889972 51.15432608782034 289.87485651117737
25740.0 -0.00779506745187 20.59915177275095 -157.79504504281971 349968.14153468422592 51.17878153065966 290.27360125102263
25770.0 -0.00749119372588 20.61404798036501 -157.78778073183091 350044.24123588111252 51.20224871015374 290.67248169535651
25800.0 -0.00711386675649 20.62863268326554 -157.77963268899012 349986.47833574656397 51.22481979309136 291.07172174841344
25830.0 -0.00765419845071 20.64331287663315 -157.77185483353199 349990.13138229679316 51.24633648223808 291.47086638292603
25860.0 -0.00669226715787 20.65796572140421 -157.76401343744570 349990.68917070515454 51.26701256453221 291.87047693503962
25890.0 -0.00711185431053 20.67257214610415 -157.75613086860039 349987.38989029824734 51.28663035950301 292.26992462762126
25920.0 -0.00675263935479 20.68714893552267 -157.74818664628290 349980.96222423017025 51.30539372046274 292.66975493002315
25950.0 -0.00656548498296 20.70183558477679 -157.74060526778334 350036.10049735661596 51.32311761618554 293.06941605074195
25980.0 -0.00686935944763 20.71617650902131 -157.73215640237296 349957.32841167598963 51.33995398116377 293.46931599696086
26010.0 -0.00641556056592 20.73079542343742 -157.72446363481583 350005.82860543858260 51.35584587471565 293.86926465657319
26040.0 -0.00606540161700 20.74521662519079 -157.71631544570172 349985.59550573583692 51.37080265410287 294.26926191534568
26070.0 -0.00587824739291 20.75959517479120 -157.70811952786940 349961.87002953235060 51.38479184816500 294.66918126951481
26100.0 -0.00635015754958 20.77410120322096 -157.70027243015036 350000.11045043636113 51.39783475041779 295.06905581691183
26130.0 -0.00563675845752 20.78857783062534 -157.69236410381814 350035.25588166620582 51.41001629082636 295.46911900409106
26160.0 -0.00617709029947 20.80283734187464 -157.68401558060606 350001.41943589970469 51.42119334081013 295.86889804061292
26190.0 -0.00548180277785 20.81706577208746 -157.67560337758309 349964.67178189195693 51.43156183938511 296.26897860954080
26220.0 -0.00506020303149 20.83142374213950 -157.66754333978449 349989.72683931142092 51.44092584814329 296.66871079565624
26250.0 -0.00534093436763 20.84575346982110 -157.65941882818359 350011.85141973476857 51.44947104343975 297.06866052590385
26280.0 -0.00564178942468 20.86003887664105 -157.65124989420127 350030.46820499189198 51.45703190011257 297.46825990315807
26310.0 -0.00557135499797 20.87429202066099 -157.64302073060153 350046.06305094715208 51.46374625126067 297.86793021289265
26340.0 -0.00631192151955 20.88831813207330 -157.63435074907417 349993.05561232939363 51.46956412764014 298.26747702633759
26370.0 -0.00680697436156 20.90249355459091 -157.62601499180218 350002.29764947202057 51.47449567102544 298.66690330311798
26400.0 -0.00698104783464 20.91662795400400 -157.61762909849409 350008.28716235235333 51.47851277333425 299.06607946480187
26430.0 -0.00662585762308 20.93072248368738 -157.60919120318573 350011.09937762562186 51.48163640179824 299.46504312664410
26460.0 -0.00703739528737 20.94478386787335 -157.60069203067815 350011.00643251184374 51.48394393567792 299.86403637761225
26490.0 -0.00704544492347 20.95879878992410 -157.59214877282864 350007.56346073560417 51.48530775997072 300.26257174522073
26520.0 -0.00713499699587 20.97278389312663 -157.58353892103656 350001.39155537076294 51.48590523912931 300.66125645163726
26550.0 -0.00726882243617 20.98672108049347 -157.57488619745655 349991.88376036938280 51.48556245237773 301.05942369465782
26580.0 -0.00738252326913 21.00083549512943 -157.56654423816295 350045.02865737676620 51.48444640369981 301.45765696310224
26610.0 -0.00769444692670 21.01469540824172 -157.55778157142686 350029.50530272256583 51.48241114957762 301.85537609544951
26640.0 -0.00749421224708 21.02851929385281 -157.54895883653154 350011.15193732082844 51.47958016627413 302.25301345884583
