# sod		dsTEC/dt [TECU/s]		lat		lon		h_ipp		ele		azi
27060.0 0.01582156172014 9.33658675136643 -160.17232945935578 350018.23385715205222 9.16801201795093 204.32786412024421
27090.0 0.00596880592835 9.44277604432485 -160.13050692482250 349989.49626049771905 9.36779062884271 204.34593585679727
27120.0 -0.00155659860324 9.54594488359245 -160.09004376739088 350044.19714262802154 9.56770221334328 204.36476297417931
27150.0 -0.00869159564527 9.64890040411435 -160.04972419764783 350049.68308619875461 9.76779798857095 204.38433192233498
27180.0 -0.01127653538084 9.75163939069575 -160.00954644259778 350005.57453057542443 9.96805914119383 204.40464865735586
27210.0 -0.01474794137548 9.85278511642807 -159.97009227076595 349983.63353605475277 10.16868604664987 204.42565949383629
27240.0 -0.01697869703937 9.95093519123329 -159.93198299270162 350048.32563550397754 10.36945047921120 204.44742784493346
30870.0 -0.01964614557271 16.48920024564516 -157.70750138306860 349969.64150210190564 35.63193555877842 213.36517319686004
30930.0 -0.01939358818455 16.54567684656012 -157.69299274288392 350020.40000421740115 36.05313965913337 213.64051902652687
30960.0 -0.01921247129833 16.57379994695960 -157.68573442220190 350022.46476399898529 36.26350128978436 213.78018748977053
30990.0 -0.01834914778923 16.60184504654954 -157.67847313748896 350009.01894529350102 36.47369068731928 213.92119939861593
31020.0 -0.01790943632471 16.62982350009313 -157.67119986204685 349981.49403040669858 36.68392588859972 214.06355934356429
31050.0 -0.01769813334005 16.65725685494594 -157.66424311124302 349994.46437260694802 36.89396853235709 214.20728402324369
31080.0 -0.01803319953521 16.68461421424115 -157.65728319314715 349992.32087022159249 37.10381116991645 214.35238343825404
31110.0 -0.01721716747202 16.71143983389952 -157.65063610615240 350032.03932555858046 37.31354698094454 214.49886625955048
31140.0 -0.01713465881276 16.73865392033943 -157.64366303044372 350000.91695913486183 37.52312891543875 214.64674404800530
31170.0 -0.01680562995547 16.76579762730850 -157.63668032034280 349955.66752154193819 37.73263726543200 214.79602698747883
31200.0 -0.01671809003357 16.79241509804005 -157.63000979043719 349952.93722799699754 37.94202918579282 214.94672704971967
31230.0 -0.01616870218479 16.81805835938205 -157.62397523505737 350049.85070250090212 38.15122770592686 215.09885590412372
31260.0 -0.01583665480630 16.84453517489107 -157.61729283358352 350018.84217784274369 38.36023890100877 215.25242459275469
31290.0 -0.01481032598142 16.87093713984930 -157.61060465603555 349973.47026267740875 38.56902980893720 215.40744422486267
31320.0 -0.01458393009526 16.89638861870287 -157.60454468940409 350030.07191977743059 38.77781885366356 215.56392791848324
31350.0 -0.01417842962112 16.92265523201004 -157.59783629060445 349957.66459568776190 38.98636755000526 215.72188634241817
31380.0 -0.01427804392330 16.94796732730097 -157.59176511941649 349986.61365890782326 39.19466655699762 215.88133073901545
31410.0 -0.01365419675590 16.97321641946331 -157.58568440502836 350002.51833912637085 39.40280919632490 216.04227442113259
31440.0 -0.01355760141812 16.99839962957306 -157.57959547206630 350005.17491808347404 39.61074668881226 216.20472897640664
31470.0 -0.01363306651652 17.02352099517592 -157.57349474788066 349995.11145716160536 39.81856138408302 216.36870901789231
31500.0 -0.01280093547660 17.04857784717897 -157.56738341996680 349972.14503548387438 40.02620839124214 216.53422674041212
31530.0 -0.01285325818514 17.07313964678754 -157.56158642170340 349994.56380472984165 40.23360999213117 216.70129281041514
31560.0 -0.01209055475800 17.09763757462789 -157.55578081651302 350004.15474979206920 40.44077197742224 216.86992013157231
31590.0 -0.01236122401207 17.12206957764217 -157.54996737187625 350000.80832566134632 40.64765999495868 217.04012025757658
31620.0 -0.01147677011587 17.14644681500869 -157.54413753415906 349985.76423872727901 40.85449256625758 217.21191596246740
31650.0 -0.01109139380585 17.17034041928101 -157.53862278432084 350017.09524569567293 41.06103124092685 217.38531108798327
31680.0 -0.01148582597495 17.19417075160853 -157.53310017514715 350035.85782087594271 41.26726469409621 217.56031812569003
31710.0 -0.01073519722357 17.21794244572304 -157.52756578813259 350042.61538413167000 41.47328621568508 217.73695563494573
31740.0 -0.01062350854109 17.24165264609368 -157.52202099123227 350037.17450890131295 41.67904524491045 217.91523508697892
31770.0 -0.01027133685074 17.26530550236036 -157.51646222300514 350020.03966765664518 41.88462605286021 218.09517624890796
31800.0 -0.01035183335951 17.28889834940883 -157.51089072757301 349991.03501864988357 42.08998163017787 218.27679139438567
31830.0 -0.00970182528104 17.31202598748737 -157.50563293657467 350010.04455496463925 42.29503350607630 218.46008996529639
31860.0 -0.00964648375582 17.33509453783719 -157.50036439797140 350017.26610589679331 42.49978709268310 218.64508692157935
31890.0 -0.00909508360882 17.35849777948351 -157.49476158966800 349952.07882430125028 42.70420658709646 218.83179417386373
31920.0 -0.00874190584322 17.38105936166464 -157.48978912897672 349997.18538219854236 42.90851026526380 219.02024544725384
31950.0 -0.00856984511156 17.40356359003214 -157.48480676873288 350030.74154869839549 43.11245989913628 219.21043677478107
31980.0 -0.00875901119067 17.42639770111284 -157.47948977296741 349991.78983233682811 43.31604208286515 219.40238185807402
32010.0 -0.00796813455424 17.44878759866549 -157.47448363228651 350002.64371699187905 43.51934986956129 219.59610517377905
32040.0 -0.00872077545611 17.47112110242365 -157.46946515662177 350002.30067462474108 43.72233086438746 219.79161785624200
32070.0 -0.00772865806482 17.49340247191678 -157.46443077853237 349991.24161069747061 43.92507108796828 219.98894564429577
32100.0 -0.00754854710611 17.51525136164404 -157.45970703026154 350030.85617661196738 44.12752133926599 220.18810066270626
32130.0 -0.00725071057026 17.53742156701708 -157.45464593438757 349997.86819024849683 44.32960239411492 220.38909081491028
32160.0 -0.00752641064376 17.55953293466798 -157.44957194393498 349953.78883979190141 44.53131917778960 220.59193329355341
32190.0 -0.00774878193347 17.58084378292521 -157.44513708893629 350022.50791898276657 44.73263437405050 220.79664020347090
32220.0 -0.00816736301089 17.60284964630757 -157.44003101349645 349957.41156524233520 44.93376560708545 221.00325768978726
32250.0 -0.00785745224248 17.62406426794163 -157.43556429112755 350005.73280122224241 45.13447509590616 221.21177276346063
32280.0 -0.00788361330128 17.64522645902799 -157.43108581505379 350043.48791232984513 45.33474725235461 221.42220022050006
32310.0 -0.00733422545251 17.66670012768186 -157.42626579824818 350008.60443126317114 45.53467465172849 221.63457118116230
32340.0 -0.00785644572403 17.68811788099115 -157.42143149461012 349963.18933922238648 45.73420301730038 221.84889610923753
32370.0 -0.00736139332523 17.70913008970046 -157.41690553252701 349970.54372250568122 45.93341990267228 222.06520762036121
32400.0 -0.00746402600089 17.73009337422790 -157.41236325176368 349967.94167359359562 46.13227384686849 222.28351733994467
32430.0 -0.00739258549893 17.75100363824045 -157.40780702637565 349955.10075390432030 46.33068462428815 222.50383129547234
32460.0 -0.00689552035870 17.77151509887656 -157.40356267162488 349995.36885639000684 46.52865705948425 222.72616882413942
32490.0 -0.00684822876506 17.79197709028763 -157.39930478494045 350025.66900373063982 46.72615200731575 222.95054205791294
32520.0 -0.00631695263445 17.81274110818678 -157.39469857029229 349983.47231229860336 46.92338596141113 223.17701120219465
32550.0 -0.00616702806968 17.83311127987781 -157.39040514716712 349994.74440739862621 47.12012185958924 223.40555273975258
32580.0 -0.00585108011113 17.85343001310561 -157.38609809192599 349996.09524540510029 47.31634182994956 223.63618232516234
32610.0 -0.00575146566120 17.87370192082009 -157.38177366903085 349987.98335995804518 47.51213768882300 223.86893848114480
32640.0 -0.00582391268161 17.89392418890169 -157.37743337705311 349970.24322317261249 47.70745323913844 224.10383050322739
32670.0 -0.00639040558237 17.91377413388710 -157.37340059821324 350007.49745651707053 47.90237730214815 224.34089885949720
32700.0 -0.00561864659162 17.93358163731660 -157.36934986107707 350035.66357628162950 48.09685609792560 224.58015414706037
32730.0 -0.00632600849353 17.95366441005176 -157.36495639654717 349990.03500208258629 48.29080892935274 224.82159967161869
32760.0 -0.00545161682712 17.97337653068424 -157.36087376933403 349999.45941541995853 48.48423936697362 225.06525739093138
32790.0 -0.00528257461667 17.99304045788475 -157.35677584470463 349999.53018295671791 48.67710689080817 225.31113879578925
32820.0 -0.00508837653625 18.01266696323267 -157.35265454392544 349991.17303073871881 48.86962630239205 225.55931994434241
32850.0 -0.00494147123136 18.03193352155391 -157.34884501426575 350038.46526193991303 49.06156159262192 225.80976491508821
32880.0 -0.00462351008817 18.05146355005433 -157.34469287122070 350011.62489668093622 49.25289250976424 226.06248980292764
32910.0 -0.00464162195408 18.07094810569705 -157.34052168471092 349975.90622998308390 49.44370978864450 226.31754128366660
32940.0 -0.00453898927842 18.09008178813482 -157.33666043696459 349996.47448156774044 49.63395529065971 226.57492675245624
32970.0 -0.00472916187598 18.10917723223139 -157.33277808217849 350008.66776911914349 49.82371878569439 226.83469554134984
33000.0 -0.00402582471824 18.12823174748555 -157.32887608522427 350012.33484578132629 50.01294413580879 227.09685643534976
33030.0 -0.00456414396651 18.14724140255233 -157.32495680256184 350007.23488461133093 50.20154996196856 227.36140923592529
33060.0 -0.00426530150314 18.16620645217115 -157.32101962214986 349993.45026331208646 50.38953894646355 227.62837818903404
33090.0 -0.00430253101472 18.18512493163956 -157.31706551604910 349970.89568765833974 50.57686890215690 227.89777355890857
33120.0 -0.00391111766230 18.20372148672435 -157.31341399802818 350006.46777467988431 50.76375228623607 228.16968915724556
33150.0 -0.00452288971074 18.22227619503139 -157.30974529898063 350033.55860734824091 50.94995455967027 228.44407431676407
33180.0 -0.00456414411424 18.24106855624311 -157.30573214575827 349985.88881321623921 51.13545301161113 228.72094488671763
33210.0 -0.00487204302763 18.25953944553606 -157.30202593888447 349996.27859046682715 51.32033693180183 229.00035637271048
33240.0 -0.00424920223094 18.27796930327810 -157.29830071958926 349998.42480527702719 51.50454625059264 229.28231320931130
33270.0 -0.00428341307358 18.29636277832501 -157.29455274227581 349992.72016492206603 51.68817131239950 229.56687458079824
33300.0 -0.00428945026372 18.31444784272355 -157.29111104035036 350045.74119704496115 51.87115361692362 229.85404631979281
33330.0 -0.00424316504079 18.33276205892125 -157.28732294706273 350023.93589809723198 52.05341118730905 230.14382347759482
33360.0 -0.00425926446073 18.35103360204409 -157.28351538006811 349993.99185429420322 52.23494567656410 230.43623223073166
33390.0 -0.00438101478207 18.36926051194104 -157.27968935279901 349955.82893299963325 52.41571322483775 230.73128057187779
33420.0 -0.00342813920058 18.38693713193272 -157.27649165342095 350044.55766741093248 52.59592319654706 231.02908199657412
33450.0 -0.00376119294979 18.40509024237033 -157.27262034217702 349991.02587580494583 52.77534305123526 231.32956817315966
33480.0 -0.00361529327693 18.42294451247743 -157.26905794512209 349996.69226999673992 52.95394757404351 231.63275364001856
33510.0 -0.00339191576424 18.44076261767222 -157.26547337375456 349994.76833053864539 53.13182421104334 231.93870323888947
33540.0 -0.00279523646956 18.45854174996148 -157.26186826800264 349985.11334022879601 53.30891102646748 232.24741693747464
33570.0 -0.00318665011746 18.47628664232303 -157.25823880538795 349968.09943679440767 53.48529851131868 232.55896464647606
33600.0 -0.00335267395444 18.49375335783112 -157.25491367321604 350011.37364088278264 53.66092585857649 232.87334762283865
33630.0 -0.00286768334223 18.51118495796375 -157.25156801653264 350047.15115493349731 53.83571064140779 233.19055444751848
33660.0 -0.00240885378883 18.52881729321628 -157.24787427396166 350007.51757292449474 54.00965336216151 233.51061251075538
33690.0 -0.00268857875425 18.54640721020890 -157.24416058898666 349960.18206525500864 54.18270853964371 233.83352601414634
33720.0 -0.00282139782383 18.56373529867166 -157.24074574929324 349974.06360456906259 54.35508160200059 234.15942997421399
33750.0 -0.00283347220412 18.58102604629734 -157.23731048584321 349980.49923408403993 54.52654268594107 234.48823478041726
33780.0 -0.00264631812777 18.59827840207896 -157.23385520140781 349979.47302184812725 54.69706408984239 234.81995208124533
33810.0 -0.00257085288162 18.61549691086833 -157.23037619450380 349971.32708116061985 54.86673099685550 235.15465626110293
33840.0 -0.00236458101186 18.63267875959670 -157.22687515827073 349955.92912853695452 55.03547975630325 235.49234073151121
33870.0 -0.00258594593085 18.64961312208587 -157.22367449312176 350002.29104983806610 55.20340053555769 235.83308676668508
33900.0 -0.00226597278491 18.66651858388060 -157.22044931645965 350041.80753050278872 55.37043037123247 236.17688879694822
33930.0 -0.00237363672321 18.68360134187535 -157.21687593212482 350005.44461918529123 55.53648663287433 236.52372660837074
33960.0 -0.00237967406108 18.70064609236872 -157.21328004477476 349961.93318173848093 55.70156859841423 236.87362759319228
33990.0 -0.00255072871750 18.71724245543849 -157.21031441009234 350049.25258497614413 55.86562930926474 237.22659003053406
34020.0 -0.00292101212602 18.73422334932165 -157.20666741532406 349992.15847928263247 56.02886933100218 237.58277203297274
34050.0 -0.00236961197902 18.75096530082606 -157.20332421612423 349997.10711397044361 56.19106235592628 237.94205829829264
34080.0 -0.00258695200610 18.76767142408472 -157.19995945282238 349995.05522821657360 56.35217831488441 238.30445534991276
34110.0 -0.00257286532758 18.78434623867478 -157.19656940322537 349986.31918765697628 56.51229971419028 238.67004686783292
34140.0 -0.00204460771818 18.80098692448307 -157.19315581589944 349970.77485135663301 56.67136147021391 239.03881690001123
34170.0 -0.00230420866721 18.81741136628156 -157.19003961699153 350018.29620293248445 56.82945293645723 239.41085833779391
34200.0 -0.00226396033895 18.83399365927878 -157.18657248240899 349989.75653327349573 56.98650928713216 239.78615576896314
34230.0 -0.00209391175779 18.85054025174561 -157.18308192370839 349954.44495131820440 57.14244808049916 240.16467714168448
34260.0 -0.00218748916530 18.86687311834794 -157.17989176330047 349982.21633159834892 57.29726738442740 240.54644801205717
34290.0 -0.00238068013633 18.88317443707400 -157.17667834669729 350003.37559121102095 57.45091904876080 240.93145787497954
34320.0 -0.00218748872210 18.89945445507435 -157.17343357283698 350018.54334588535130 57.60359779236990 241.31988904752933
34350.0 -0.00212107933504 18.91570253486400 -157.17016512385720 350027.15546729415655 57.75508200397744 241.71159528807078
34380.0 -0.00237564931690 18.93191753393650 -157.16687352887001 350029.19198814686388 57.90533952114377 242.10657499118463
34410.0 -0.00195103075387 18.94810394352503 -157.16355503380220 350024.94441007357091 58.05444980480316 242.50492028271981
34440.0 -0.00234747522120 18.96425893458779 -157.16021144494462 350014.29651501215994 58.20234680943973 242.90660223532461
34470.0 -0.00228710317202 18.98038747032582 -157.15683862705791 349997.55861053336412 58.34911859926360 243.31172508852279
34500.0 -0.00202750222299 18.99648673148364 -157.15343837884262 349974.61386408563703 58.49469898608668 243.72025972925343
34530.0 -0.00218748916530 19.01240069752118 -157.15033568280344 350015.78220828622580 58.63900631422661 244.13215846428227
34560.0 -0.00218044530897 19.02843743855657 -157.14688458332708 349980.24662903416902 58.78203759726490 244.54744247328296
34590.0 -0.00212912911888 19.04429307963392 -157.14373111631943 350008.96465166006237 58.92374398201964 244.96608883591534
34620.0 -0.00201744043640 19.06027388138343 -157.14022274125122 349961.34295229613781 59.06431334200268 245.38830451573727
34650.0 -0.00214220942668 19.07593823671264 -157.13733261435169 350048.92799851670861 59.20353023305694 245.81390635862451
34680.0 -0.00221767511602 19.09185405993614 -157.13377457260441 349988.81749561615288 59.34136089374029 246.24288084758342
34710.0 -0.00234747536893 19.10760332465566 -157.13050950272290 349993.54308837279677 59.47788146894131 246.67532701752134
34740.0 -0.00190172686200 19.12332401990931 -157.12721771000946 349992.24160237051547 59.61302567834667 247.11119859295195
34770.0 -0.00196109283594 19.13902117582342 -157.12389492820040 349985.20257506798953 59.74687988470968 247.55061030300794
34800.0 -0.00222371245390 19.15468666916470 -157.12054716319045 349972.05425996147096 59.87927555852421 247.99340169026459
34830.0 -0.00181318056939 19.17020855706829 -157.11748495798128 350024.54867040179670 60.01042330031703 248.43982741240393
34860.0 -0.00200939050483 19.18582397178136 -157.11407781282651 349999.86601752880961 60.14006776190115 248.88962299574322
34890.0 -0.00180412500577 19.20140954062915 -157.11064326075800 349969.27409046608955 60.26825505562462 249.34285647028264
34920.0 -0.00181318071712 19.21684856161011 -157.10750149921535 350004.04374447837472 60.39493649315210 249.79948638349373
34950.0 -0.00178198854342 19.23227157854839 -157.10432467262538 350033.48055796604604 60.52029139953189 250.25974648263724
34980.0 -0.00165721881447 19.24777730130382 -157.10080220622237 349985.68169222585857 60.64411307005797 250.72340545498258
35010.0 -0.00179205047775 19.26314372106881 -157.09757172323023 350003.45723727438599 60.76636702021809 251.19043177988641
35040.0 -0.00147207733181 19.27848709267754 -157.09431072678098 350015.66278110817075 60.88712563117387 251.66092960880806
35070.0 -0.00154452420448 19.29390479669970 -157.09070385513891 349950.58656515553594 61.00632366548545 252.13482809217018
35100.0 -0.00189468359661 19.30919856008929 -157.08738163743556 349951.66547102667391 61.12404508121243 252.61225167445559
35130.0 -0.00177595091007 19.32436899100555 -157.08434916727609 350018.72386566363275 61.24012656474193 253.09299281168876
35160.0 -0.00191782598648 19.33961923778214 -157.08096340648791 350008.92281440645456 61.35476914462213 253.57733916036892
35190.0 -0.00166828741498 19.35483945819645 -157.07755103988313 349993.39659986272454 61.46772814207016 254.06496124545856
35220.0 -0.00201643406568 19.36994689101774 -157.07442481403677 350044.18638105597347 61.57904756105604 254.55592483850930
35250.0 -0.00205567602323 19.38511390263367 -157.07095471903514 350017.54340673703700 61.68868021307183 255.05016462180805
35280.0 -0.00210598672901 19.40026174423135 -157.06744822358300 349985.75304532609880 61.79679586067090 255.54793981571603
35310.0 -0.00188864566779 19.41530338852372 -157.06422740530448 350020.42884434014559 61.90319936527163 256.04896384397023
35340.0 -0.00202850844597 19.43032036218362 -157.06097792585237 350049.62648656591773 62.00785689087334 256.55318195568458
35370.0 -0.00194096881954 19.44538825023786 -157.05738243541825 350001.45335322059691 62.11083718874541 257.06070053141298
35400.0 -0.00201341554448 19.46035887088453 -157.05407022517505 350019.99470760207623 62.21207779409728 257.57141864935693
35430.0 -0.00146302162046 19.47531147393429 -157.05072286282697 350033.42910876683891 62.31166011370948 258.08546862856565
35460.0 -0.00148817645628 19.49030049959837 -157.04703453613294 349969.21071784943342 62.40942898969936 258.60258886142935
