# sod		dsTEC/dt [TECU/s]		lat		lon		h_ipp		ele		azi
24240.0 0.01897903244226 9.12559198405476 -158.37459385129338 349999.71871688030660 10.72451579530376 197.18994186449683
24270.0 0.01251617998722 9.21913914829847 -158.34015899896136 350037.43412939831614 10.91985392219138 197.15511031878683
24300.0 0.00611269217650 9.31255082311003 -158.30597373185799 350035.49361919704825 11.11561750100566 197.12082628466385
24330.0 -0.00177796335603 9.40581322192197 -158.27205498422873 349990.95176193304360 11.31165063229103 197.08717496186978
24360.0 -0.00716417761002 9.49607439710170 -158.23921698651617 350046.85478074382991 11.50817523278688 197.05403453747260
24390.0 -0.01356464335389 9.58763119696714 -158.20619805176108 349993.38180645089597 11.70509568308810 197.02145727972407
24420.0 -0.01797785963508 9.67617700696985 -158.17427643483254 350037.45164294354618 11.90227277635798 196.98951866375401
27630.0 -0.01980311236873 15.42418268561781 -156.45626021359419 350048.95640756376088 34.96173262013591 197.08960904656291
27720.0 -0.01973972342343 15.51708761711538 -156.43611572285573 350027.62881505955011 35.65669949017293 197.20529386504305
27750.0 -0.01886231116753 15.54791602166576 -156.42946532146334 349987.98833015933633 35.88898051922783 197.24541942637762
27780.0 -0.01881703216758 15.57758803361872 -156.42319445860940 350040.74223518464714 36.12135058065888 197.28643540953021
27810.0 -0.01774542641104 15.60826058008367 -156.41662111396693 349967.10944449063390 36.35394349172933 197.32828692170347
27840.0 -0.01812878805907 15.63779302906769 -156.41041693965371 349987.75753724854439 36.58678935795406 197.37096574870606
27870.0 -0.01789132475428 15.66725880549509 -156.40424324775074 349992.81407776195556 36.81990799685173 197.41446845158484
27900.0 -0.01769511496658 15.69665735314857 -156.39809937343412 349982.32074068766087 37.05330079112360 197.45879995824245
27930.0 -0.01747576160713 15.72597816808755 -156.39199358117261 349955.21079583559185 37.28678660571963 197.50404633475787
27960.0 -0.01656414102008 15.75418825267254 -156.38624691632916 350025.44350536447018 37.52063526599599 197.55009345133428
27990.0 -0.01719100656096 15.78337955833783 -156.38019403865229 349968.20814589876682 37.75473696548056 197.59699600614945
28020.0 -0.01658023940588 15.81145172124625 -156.37451263031625 350007.37097021006048 37.98890822115199 197.64484111649460
28050.0 -0.01618077700829 15.83946596150467 -156.36885412662042 350032.30994990281761 38.22341965718081 197.69351517078536
28080.0 -0.01541102928162 15.86740657853473 -156.36323134988712 350041.41866671852767 38.45799152012658 197.74314792113131
28110.0 -0.01529431155253 15.89529282862464 -156.35762619430298 350036.87901272810996 38.69299093513287 197.79358390486098
28140.0 -0.01707126794690 15.92310448315984 -156.35205542286349 350016.61415379494429 38.92805320459735 197.84499029963823
28170.0 -0.01802816871578 15.95084829261824 -156.34651199103061 349981.45541497692466 39.16331369104971 197.89731410014858
28200.0 -0.01513935410004 15.97751357686150 -156.34132613727249 350046.82411081995815 39.39880169213514 197.95054927039428
28230.0 -0.01531242386164 16.00512889607967 -156.33583150360448 349982.82648445572704 39.63454057794046 198.00469260194518
28260.0 -0.01593727429732 16.03167472508606 -156.33069171296881 350020.27552046533674 39.87052838681784 198.05975217429750
28290.0 -0.01628542065255 16.05815245320780 -156.32558249750164 350042.98431123886257 40.10658124795831 198.11581555903877
28320.0 -0.01452657774917 16.08507299949211 -156.32032516533900 349994.17539202328771 40.34297393360031 198.17277029954002
28350.0 -0.01504879728201 16.11093951003782 -156.31542073240232 350048.25898447260261 40.57959500616187 198.23067275671636
28380.0 -0.01466643786812 16.13723190381477 -156.31038081380143 350029.27640727162361 40.81625599272079 198.28961260986480
28410.0 -0.01523192602324 16.16346751223934 -156.30535775566912 349997.08387051615864 41.05323327305168 198.34947774241726
28440.0 -0.01534965189587 16.18963077437999 -156.30036390471852 349950.20944067928940 41.29024153136491 198.41040002739757
28470.0 -0.01541304202305 16.21477020042015 -156.29571137208805 350009.10107371862978 41.52765410095525 198.47222620224250
28500.0 -0.01395605951328 16.24032869921507 -156.29092167081978 349994.72592380922288 41.76509991339633 198.53512530049437
28530.0 -0.01478013943976 16.26582537023169 -156.28615298088391 349966.88966897875071 42.00271580952393 198.59904681322664
28560.0 -0.01513532979906 16.29078287899905 -156.28156780302044 349985.52868512738496 42.24053018140327 198.66398744228698
28590.0 -0.01325574013808 16.31568518585551 -156.27699986963603 349991.41962262615561 42.47857000596144 198.72994478979049
28620.0 -0.01354150214591 16.34053154404061 -156.27244893020847 349984.57018367573619 42.71682981023476 198.79693065529867
28650.0 -0.01375683002250 16.36531180224239 -156.26792261496971 349964.09419024642557 42.95512292970771 198.86503452938499
28680.0 -0.01362904162461 16.38957111580311 -156.26357194819590 349991.86515357252210 43.19372906081143 198.93414648862543
28710.0 -0.01368941441246 16.41377682972142 -156.25923737624223 350007.25876695103943 43.43253506823086 199.00432508139386
28740.0 -0.01215897688649 16.43791852025894 -156.25492672619202 350009.38006207160652 43.67134736410367 199.07566297025150
28770.0 -0.01225959622978 16.46201035654017 -156.25062734701223 349999.63648104574531 43.91044806440716 199.14805049867221
28800.0 -0.01201307854325 16.48557751393563 -156.24651438719093 350037.80675564333797 44.14954619643873 199.22162199355850
28830.0 -0.01164379899395 16.50956032375655 -156.24224466266108 350003.64398664515465 44.38902124184238 199.29622755131743
28860.0 -0.01210162261984 16.53347717377947 -156.23799705652988 349956.36788219120353 44.62849568029694 199.37203830237922
28890.0 -0.01111856212177 16.55688257433305 -156.23392798500794 349958.31268919445574 44.86810774014080 199.44900713548358
28920.0 -0.01116283416007 16.57978478182800 -156.23003542049716 350010.15095103159547 45.10788478873941 199.52713428358624
28950.0 -0.01130772790541 16.60308694308361 -156.22599214022165 349988.62183099240065 45.34785744271272 199.60641899624588
28980.0 -0.01116082260052 16.62589109439428 -156.22212328437146 350017.49191525578499 45.58801652900129 199.68687758397303
29010.0 -0.01069997808966 16.64907948966846 -156.21811127822704 349971.84855328407139 45.82817251554912 199.76860197525804
29040.0 -0.01058527428388 16.67133882151113 -156.21443071861302 350039.90875937603414 46.06860996760485 199.85148609848673
29070.0 -0.00993928829036 16.69442785925283 -156.21043701358121 349971.65999993309379 46.30921396500457 199.93559139347894
29100.0 -0.01009424456098 16.71658104443006 -156.20678624192144 350016.47002586722374 46.54978566241696 200.02101402998383
29130.0 -0.00948448554943 16.73912527062617 -156.20298001910268 349987.74570721015334 46.79061285562324 200.10764828552934
29160.0 -0.01008619477714 16.76117751118217 -156.19935368486426 350009.99872819706798 47.03139880547019 200.19563131068907
29190.0 -0.01020291605186 16.78361962402231 -156.19556765369384 349958.84400689508766 47.27252903866832 200.28481834562683
29220.0 -0.00958108177362 16.80557413878051 -156.19196024705931 349959.08708023186773 47.51361948863386 200.37538282942674
29250.0 -0.00991111345599 16.82705521867232 -156.18852497183744 350011.84583372436464 47.75480964480501 200.46728238187788
29280.0 -0.00981854507842 16.84891176611341 -156.18493758666753 349990.23397341649979 47.99612569811655 200.56052190560416
29310.0 -0.01017675395892 16.87030228349174 -156.18151876380458 350021.78461516648531 48.23760190441592 200.65510352343648
29340.0 -0.01030957361944 16.89206369772722 -156.17794634522085 349978.80958811659366 48.47922516813316 200.75104917416823
29370.0 -0.01035686299706 16.91335328002672 -156.17454951241348 349988.56148729100823 48.72080298980658 200.84845390386448
29400.0 -0.00992922694697 16.93460281204417 -156.17115528739268 349988.32992199249566 48.96262469894680 200.94721749546338
29430.0 -0.01067381954235 16.95539859773363 -156.16792845030628 350042.21967866457999 49.20457347052722 201.04740525567473
29460.0 -0.00985879281573 16.97695307697117 -156.16439481137786 349955.85804400313646 49.44644503077117 201.14911753889899
29490.0 -0.00963843367651 16.99765514300182 -156.16118450741934 349988.89751741569489 49.68853274323781 201.25225479425580
29520.0 -0.01055810641116 17.01830483892282 -156.15798773902114 350011.13006853405386 49.93053396670554 201.35695742497884
29550.0 -0.00967163859164 17.03892117077874 -156.15478883023874 350024.09783255308867 50.17284010442698 201.46308853760505
29580.0 -0.00910816435982 17.05948469029312 -156.15160251230736 350026.34975532814860 50.41506042516993 201.57082405465675
29610.0 -0.00766526749443 17.08000207355967 -156.14842286878769 350018.46692608110607 50.65733549818084 201.68012830977244
29640.0 -0.00892604021649 17.10047429922655 -156.14524849792173 350000.58406290598214 50.89969013564203 201.79101253349580
29670.0 -0.00921482310928 17.12090297479974 -156.14207751424271 349972.88018218521029 51.14216217819906 201.90348354503433
29700.0 -0.00753747791466 17.14090246671380 -156.13906966907194 350001.22310312371701 51.38473433312624 202.01757051787644
29730.0 -0.00713701091917 17.16085277125563 -156.13607221639677 350019.34803404659033 51.62721099074055 202.13337254528687
29760.0 -0.00768136588023 17.18114732454201 -156.13291425228917 349962.17039281595498 51.86988606391855 202.25079830415382
29790.0 -0.00698406620811 17.20064205948149 -156.13007770083723 350027.85449193511158 52.11264064996838 202.36991836180741
29820.0 -0.00708368095351 17.22083885515382 -156.12693318120847 349950.67334335856140 52.35526482820936 202.49083817099682
29850.0 -0.00699110903030 17.24025016080314 -156.12410535441393 349997.32788619678468 52.59805733171451 202.61346775289348
29880.0 -0.00747710749057 17.25961442993384 -156.12128706899495 350034.12523578573018 52.84070943694199 202.73795129076137
29910.0 -0.00814623232831 17.27931689597705 -156.11830433996093 349995.57013295777142 53.08361815444098 202.86416390743628
29940.0 -0.00723762908058 17.29860306531945 -156.11548905642397 350014.00330113526434 53.32638592746405 202.99228413994703
29970.0 -0.00814723928996 17.31820952813529 -156.11251825987480 349956.01275003887713 53.56915413710900 203.12228601115996
30000.0 -0.00907898374567 17.33741254702040 -156.10970762042800 349955.93939601909369 53.81194593293323 203.25418953461181
30030.0 -0.00797618699731 17.35622185897442 -156.10705480575379 350014.37422674242407 54.05480259873508 203.38800897867301
30060.0 -0.00903571630527 17.37535039782748 -156.10424371138720 349996.50699949916452 54.29770228593559 203.52378310584731
30090.0 -0.00767734157925 17.39407973786506 -156.10159743756515 350036.78452405519783 54.54044606065076 203.66161638151715
30120.0 -0.00871574360254 17.41312745781747 -156.09878859722306 350000.88951574824750 54.78333211614650 203.80143101226335
30150.0 -0.00828408443335 17.43213456182409 -156.09597926728438 349956.06224951334298 55.02623921186778 203.94330487559506
30180.0 -0.00765419800751 17.45040583557815 -156.09349196660824 350037.93035401497036 55.26895148426756 204.08734980633238
30210.0 -0.00659567211556 17.46933063744540 -156.09068472022832 349975.23408562690020 55.51177269797623 204.23349059838577
30240.0 -0.00860304781067 17.48752960544399 -156.08819845634454 350039.82421921007335 55.75438779245599 204.38187590720622
30270.0 -0.00647995898437 17.50637528263667 -156.08538872894076 349959.66549453698099 55.99719895296914 204.53239923082708
30300.0 -0.00677477419205 17.52450558177795 -156.08289862412965 350007.39962084591389 56.23980156481104 204.68524180217418
30330.0 -0.00750025106231 17.54260128545535 -156.08040796216605 350046.71488510631025 56.48233741085920 204.84039185126713
30360.0 -0.00605634605338 17.56098962843990 -156.07775876594292 350008.80551591701806 56.72482756108718 204.99788187095669
30390.0 -0.00706154316154 17.57934091997718 -156.07510601083172 349962.49800300039351 56.96731645521447 205.15773779929529
30420.0 -0.00741371618151 17.59733292922428 -156.07260670152530 349976.91483458317816 57.20977719198904 205.32001150529928
30450.0 -0.00641354797223 17.61528248204240 -156.07011083897729 349982.60455745924264 57.45200718059554 205.48481478271302
30480.0 -0.00754854740158 17.63320362229583 -156.06760718148868 349980.47876313515007 57.69430838966480 205.65209050119387
30510.0 -0.00730102038964 17.65109053265116 -156.06509969169548 349970.21896780002862 57.93655683497837 205.82192693837686
30540.0 -0.00663994533574 17.66893288724145 -156.06259576856630 349951.24718940723687 58.17853028432370 205.99444418047489
30570.0 -0.00829716311606 17.68643768763217 -156.06023979392751 349994.24518339615315 58.42053696359903 206.16958982390739
30600.0 -0.00574140343140 17.70390279523349 -156.05788658276253 350028.83307010121644 58.66225509501044 206.34751796012205
30630.0 -0.00713801669895 17.72164883294659 -156.05536581234469 349986.15096149593592 58.90409133338226 206.52815029341485
30660.0 -0.00665201705680 17.73905043343080 -156.05300263908637 350005.02964900434017 59.14563365209832 206.71167077309678
30690.0 -0.00677377077604 17.75641872619418 -156.05063593396366 350016.00480541493744 59.38702358755832 206.89808878383579
30720.0 -0.00603420944330 17.77375459992992 -156.04826455245279 350019.16880538221449 59.62827948861980 207.08745495143037
30750.0 -0.00596276835040 17.79106026123905 -156.04588635034787 350014.68639490567148 59.86944841720403 207.27981344505557
30780.0 -0.00593057039692 17.80833426175115 -156.04350197085660 350002.51251268479973 60.11049768918684 207.47523458583754
30810.0 -0.00579372525354 17.82556721819556 -156.04111809788370 349982.16302693262696 60.35122052371551 207.67384045695277
30840.0 -0.00606338887557 17.84249062322080 -156.03887802465240 350025.27950332127512 60.59192181428627 207.87560568481061
30870.0 -0.00532181716515 17.85966655884434 -156.03647666684395 349990.05411425139755 60.83247418030917 208.08063369209401
30900.0 -0.00517591645815 17.87652242029395 -156.03423010930064 350017.70905609428883 61.07264837484647 208.28905560084416
30930.0 -0.00588529139697 17.89362925199909 -156.03181866225003 349967.09724148269743 61.31275611635736 208.50085433932944
30960.0 -0.00539929530046 17.91042105234745 -156.02956118232726 349979.64440830238163 61.55246831639231 208.71619081567590
30990.0 -0.00465369574343 17.92719354104381 -156.02728888127521 349985.34955033473670 61.79219492353455 208.93503029715842
31020.0 -0.00541337976295 17.94392784889613 -156.02501566929155 349983.24725952371955 62.03151593982243 209.15755935036094
31050.0 -0.00676571981032 17.96063050912973 -156.02273614254844 349973.72390013653785 62.27057159605116 209.38381931369193
31080.0 -0.00535502208028 17.97730236778641 -156.02044922468804 349956.86098063457757 62.50937649207724 209.61388768924164
31110.0 -0.00613482996846 17.99368834549552 -156.01830557539216 350004.59564122650772 62.74797934933392 209.84783717938052
31140.0 -0.00341103296672 18.01004993467561 -156.01615270134917 350045.30534362141043 62.98634056888650 210.08576476256445
31170.0 -0.00815025781117 18.02662971402284 -156.01384468976755 350006.57559016067535 63.22424830196591 210.32780732058637
31200.0 -0.00544256155898 18.04318421827587 -156.01152337695396 349960.92555109132081 63.46200891222703 210.57398864650600
31230.0 -0.00552406163151 18.05946153339810 -156.00934482757486 349980.28434093575925 63.69949054075401 210.82443463715717
31260.0 -0.00531074886011 18.07570319687532 -156.00716393032170 349992.19975420366973 63.93645590243445 211.07929157928993
31290.0 -0.00508737119968 18.09192352610309 -156.00496937872052 349997.40560967195779 64.17321853692603 211.33859744019119
31320.0 -0.00546570394884 18.10810778497118 -156.00277196946604 349995.22428881470114 64.40944108713555 211.60252183458590
31350.0 -0.00477142161605 18.12427463240476 -156.00055709199387 349986.58112736418843 64.64553478610128 211.87109776924009
31380.0 -0.00517994194101 18.14040532683093 -155.99833859937598 349970.61860326025635 64.88107075470990 212.14451392107387
31410.0 -0.00562468333856 18.15627704379406 -155.99626214547501 350020.43180028162897 65.11618613532589 212.42286041971249
31440.0 -0.00410933960049 18.17235203637246 -155.99402451692845 349990.68154207337648 65.35089007304934 212.70625514893828
31470.0 -0.00514472310257 18.18840073208727 -155.99177455344196 349954.17582188732922 65.58523122626013 212.99481550449968
31500.0 -0.00438403566704 18.20420060551168 -155.98966353245814 349983.88908264040947 65.81916124519925 213.28867762519798
31530.0 -0.00371691884320 18.21996895937877 -155.98754725841204 350006.59836138784885 66.05246173625090 213.58799983277490
31560.0 -0.00523528346623 18.23571976706855 -155.98541467632933 350022.95863554999232 66.28543799757786 213.89288244826594
31590.0 -0.00430756094774 18.25144743312951 -155.98326965287495 350032.74654593318701 66.51795185708940 214.20348491756874
31620.0 -0.00490927372109 18.26714162698892 -155.98111968025410 350035.54420589655638 66.74975631500624 214.51997441293881
31650.0 -0.00502599026830 18.28281666899211 -155.97895343125708 350032.00406043697149 66.98116380047067 214.84247487532406
31680.0 -0.00400670869765 18.29845789489825 -155.97678171823978 350021.52831870224327 67.21182710480018 215.17116658523614
31710.0 -0.00500083631888 18.31408388272936 -155.97458994961602 350004.93427267763764 67.44215523419213 215.50618826207611
31740.0 -0.00458628249715 18.32967601643574 -155.97239197283275 349981.46785789728165 67.67170892733999 215.84772854312277
31770.0 -0.00540734153866 18.34524073407114 -155.97018248139977 349951.43256935477257 67.90061916666592 216.19595214155004
31800.0 -0.00549387760134 18.36058647090338 -155.96810861491068 349988.74867954012007 68.12888673790815 216.55103752669422
31830.0 -0.00529967937319 18.37591400461720 -155.96601930227155 350019.85267542209476 68.35655715907754 216.91317143548019
31860.0 -0.00498071481399 18.39140808516063 -155.96376796285756 349970.68084499612451 68.58357025750739 217.28254726541613
31890.0 -0.00501492314513 18.40668357701828 -155.96165664871970 349988.85291910544038 68.80969858467142 217.65935327520671
31920.0 -0.00491329684019 18.42194387418661 -155.95952642407786 350001.00805855356157 69.03524189202221 218.04380845020154
31950.0 -0.00490323549680 18.43718344496688 -155.95738115129373 350006.95209786016494 69.26005254703480 218.43612101284208
31980.0 -0.00415260704089 18.45239195304072 -155.95522840534423 350006.31851011142135 69.48387105250714 218.83648496920597
32010.0 -0.00498272519166 18.46758371278167 -155.95305679654717 349999.68014649394900 69.70700353034000 219.24515738798891
32040.0 -0.00422605969334 18.48274413392032 -155.95087718820233 349986.51641322672367 69.92909030704996 219.66232828292965
32070.0 -0.00363541640692 18.49772520262290 -155.94882071939821 350042.06084913387895 70.15053194491594 220.08829994261663
32100.0 -0.00437095343868 18.51284430887167 -155.94660947249636 350016.68520207982510 70.37087636447043 220.52325232585682
32130.0 -0.00405399807527 18.52793846170134 -155.94438419429574 349985.10544705856591 70.59024305616599 220.96746142911823
32160.0 -0.00410531529951 18.54285049335415 -155.94228889782124 350022.09701477084309 70.80861947737196 221.42119312152744
32190.0 -0.00367264680491 18.55790192953064 -155.94003083191728 349978.40723431110382 71.02604256945926 221.88473738983706
32220.0 -0.00419486633776 18.57277792924611 -155.93790071137843 350003.49904204439372 71.24243518042697 222.35836655329169
32250.0 -0.00381351743115 18.58762736690659 -155.93576022082723 350022.36603548657149 71.45755662961842 222.84230404917082
